total,tp,tn,fp,fn,precision,recall,f1,fbeta,accuracy,train_time,test_time
10.0,0.0,4.0,0.0,0.0,0.16,0.4,0.2285714285714286,0.2285714285714286,0.4,0.0,0.0701589584350586
20.0,0.0,7.0,0.0,3.0,0.48999999999999994,0.7,0.5764705882352941,0.5764705882352941,0.7,0.0,0.011249542236328125
30.0,0.0,3.0,0.0,0.0,0.09,0.3,0.13846153846153847,0.13846153846153847,0.3,0.0,0.010269880294799805
40.0,0.0,8.0,0.0,2.0,0.64,0.8,0.7111111111111111,0.7111111111111111,0.8,0.0,0.007192850112915039
50.0,0.0,6.0,0.0,4.0,0.36,0.6,0.4499999999999999,0.4499999999999999,0.6,0.0,0.007881402969360352
60.0,0.0,8.0,0.0,2.0,0.64,0.8,0.7111111111111111,0.7111111111111111,0.8,0.0,0.007309436798095703
70.0,0.0,5.0,0.0,5.0,0.25,0.5,0.3333333333333333,0.3333333333333333,0.5,0.0,0.009357690811157227
80.0,0.0,7.0,0.0,0.0,0.48999999999999994,0.7,0.5764705882352941,0.5764705882352941,0.7,0.0,0.01058816909790039
90.0,0.0,7.0,0.0,0.0,0.48999999999999994,0.7,0.5764705882352941,0.5764705882352941,0.7,0.0,0.0078051090240478516
100.0,0.0,5.0,0.0,5.0,0.25,0.5,0.3333333333333333,0.3333333333333333,0.5,0.0,0.007990598678588867
110.0,0.0,7.0,0.0,3.0,0.48999999999999994,0.7,0.5764705882352941,0.5764705882352941,0.7,0.0,0.01034688949584961
120.0,0.0,6.0,0.0,4.0,0.36,0.6,0.4499999999999999,0.4499999999999999,0.6,0.0,0.008324861526489258
130.0,0.0,6.0,0.0,0.0,0.36,0.6,0.4499999999999999,0.4499999999999999,0.6,0.0,0.008224725723266602
140.0,0.0,6.0,0.0,0.0,0.36,0.6,0.4499999999999999,0.4499999999999999,0.6,0.0,0.012556076049804688
150.0,0.0,5.0,0.0,5.0,0.25,0.5,0.3333333333333333,0.3333333333333333,0.5,0.0,0.009215593338012695
160.0,5.0,4.0,1.0,0.0,0.9166666666666667,0.9,0.898989898989899,0.898989898989899,0.9,0.17427802085876465,0.008800983428955078
170.0,0.0,4.0,0.0,0.0,0.16,0.4,0.2285714285714286,0.2285714285714286,0.4,0.0,0.8111331462860107
180.0,0.0,7.0,0.0,3.0,0.48999999999999994,0.7,0.5764705882352941,0.5764705882352941,0.7,0.0,0.03619098663330078
190.0,0.0,7.0,0.0,0.0,0.48999999999999994,0.7,0.5764705882352941,0.5764705882352941,0.7,0.0,0.03288078308105469
200.0,0.0,7.0,0.0,3.0,0.48999999999999994,0.7,0.5764705882352941,0.5764705882352941,0.7,0.0,0.009760618209838867
210.0,0.0,7.0,0.0,0.0,0.6625,0.8,0.72,0.72,0.8,0.19942235946655273,0.008995771408081055
220.0,3.0,7.0,0.0,0.0,1.0,1.0,1.0,1.0,1.0,0.0,0.009688854217529297
230.0,4.0,6.0,0.0,0.0,1.0,1.0,1.0,1.0,1.0,0.0,0.009108304977416992
240.0,4.0,5.0,1.0,0.0,0.9199999999999999,0.9,0.901010101010101,0.901010101010101,0.9,0.0,0.015194177627563477
250.0,0.0,6.0,0.0,0.0,0.8142857142857143,0.9,0.8538461538461538,0.8538461538461538,0.9,0.0,0.010725259780883789
260.0,2.0,7.0,1.0,0.0,0.9333333333333333,0.9,0.9066666666666666,0.9066666666666666,0.9,0.0,0.010242223739624023
270.0,5.0,5.0,0.0,0.0,1.0,1.0,1.0,1.0,1.0,0.0,0.00717926025390625
280.0,4.0,6.0,0.0,0.0,1.0,1.0,1.0,1.0,1.0,0.0,0.0070188045501708984
290.0,4.0,6.0,0.0,0.0,1.0,1.0,1.0,1.0,1.0,0.0,0.007082939147949219
300.0,0.0,7.0,0.0,0.0,0.8333333333333334,0.9,0.86,0.86,0.9,0.0,0.007147789001464844
310.0,4.0,5.0,0.0,1.0,0.9166666666666667,0.9,0.898989898989899,0.898989898989899,0.9,0.0,0.007044792175292969
320.0,0.0,8.0,0.0,0.0,0.85,0.9,0.8666666666666666,0.8666666666666666,0.9,0.0,0.00690913200378418
330.0,6.0,4.0,0.0,0.0,1.0,1.0,1.0,1.0,1.0,0.0,0.007155418395996094
340.0,0.0,5.0,0.0,0.0,0.7571428571428571,0.8,0.7595238095238095,0.7595238095238095,0.8,0.0,0.007126808166503906
350.0,3.0,6.0,0.0,1.0,0.9142857142857143,0.9,0.8967032967032967,0.8967032967032967,0.9,0.0,0.015117168426513672
360.0,4.0,6.0,0.0,0.0,1.0,1.0,1.0,1.0,1.0,0.0,0.007384538650512695
370.0,0.0,4.0,0.0,0.0,0.8166666666666668,0.9,0.8545454545454545,0.8545454545454545,0.9,0.0,0.007269859313964844
380.0,0.0,6.0,0.0,0.0,0.825,0.9,0.8571428571428571,0.8571428571428571,0.9,0.0,0.007035017013549805
390.0,5.0,5.0,0.0,0.0,1.0,1.0,1.0,1.0,1.0,0.0,0.007067203521728516
400.0,5.0,5.0,0.0,0.0,1.0,1.0,1.0,1.0,1.0,0.0,0.006979465484619141
410.0,1.0,8.0,0.0,1.0,0.9111111111111111,0.9,0.8862745098039216,0.8862745098039216,0.9,0.0,0.007019758224487305
420.0,3.0,7.0,0.0,0.0,1.0,1.0,1.0,1.0,1.0,0.0,0.007159233093261719
430.0,2.0,8.0,0.0,0.0,1.0,1.0,1.0,1.0,1.0,0.0,0.006790876388549805
440.0,5.0,5.0,0.0,0.0,1.0,1.0,1.0,1.0,1.0,0.0,0.007121562957763672
450.0,0.0,7.0,0.0,0.0,0.7125,0.8,0.7533333333333333,0.7533333333333333,0.8,0.0,0.007134199142456055
460.0,0.0,1.0,0.0,0.0,0.8111111111111111,0.9,0.8529411764705882,0.8529411764705882,0.9,0.0,0.007203817367553711
470.0,0.0,5.0,0.0,0.0,0.6799999999999999,0.8,0.725,0.725,0.8,0.0,0.006988048553466797
480.0,0.0,4.0,0.0,0.0,0.6666666666666666,0.8,0.72,0.72,0.8,0.0,0.007039308547973633
490.0,3.0,7.0,0.0,0.0,1.0,1.0,1.0,1.0,1.0,0.0,0.007125377655029297
500.0,1.0,9.0,0.0,0.0,1.0,1.0,1.0,1.0,1.0,0.0,0.006827592849731445
510.0,0.0,6.0,0.0,0.0,0.8,0.8,0.7794871794871794,0.7794871794871794,0.8,0.0,0.006714582443237305
520.0,0.0,6.0,0.0,0.0,0.825,0.9,0.8571428571428571,0.8571428571428571,0.9,0.0,0.00837850570678711
530.0,4.0,6.0,0.0,0.0,1.0,1.0,1.0,1.0,1.0,0.0,0.010950088500976562
540.0,6.0,4.0,0.0,0.0,1.0,1.0,1.0,1.0,1.0,0.0,0.01095271110534668
550.0,0.0,4.0,0.0,0.0,0.7666666666666666,0.8,0.7644444444444445,0.7644444444444445,0.8,0.0,0.00919961929321289
560.0,5.0,5.0,0.0,0.0,1.0,1.0,1.0,1.0,1.0,0.0,0.012384891510009766
570.0,0.0,5.0,0.0,0.0,0.8166666666666668,0.9,0.8545454545454545,0.8545454545454545,0.9,0.0,0.011673212051391602
580.0,0.0,4.0,0.0,0.0,0.7666666666666666,0.8,0.7644444444444445,0.7644444444444445,0.8,0.0,0.01114654541015625
590.0,3.0,7.0,0.0,0.0,1.0,1.0,1.0,1.0,1.0,0.0,0.009782791137695312
600.0,0.0,6.0,0.0,0.0,0.825,0.9,0.8571428571428571,0.8571428571428571,0.9,0.0,0.00944209098815918
610.0,3.0,7.0,0.0,0.0,1.0,1.0,1.0,1.0,1.0,0.0,0.009910106658935547
620.0,0.0,5.0,0.0,0.0,0.5166666666666667,0.7,0.5878787878787878,0.5878787878787878,0.7,0.0,0.008522272109985352
630.0,0.0,3.0,0.0,0.0,0.8142857142857143,0.9,0.8538461538461538,0.8538461538461538,0.9,0.0,0.013226985931396484
640.0,0.0,7.0,0.0,0.0,0.7333333333333333,0.8,0.75,0.75,0.8,0.0,0.007319927215576172
650.0,5.0,5.0,0.0,0.0,1.0,1.0,1.0,1.0,1.0,0.0,0.00745844841003418
660.0,3.0,6.0,1.0,0.0,0.925,0.9,0.9032967032967033,0.9032967032967033,0.9,0.0,0.007715463638305664
670.0,0.0,4.0,0.0,0.0,0.6666666666666666,0.8,0.72,0.72,0.8,0.0,0.007495403289794922
680.0,6.0,4.0,0.0,0.0,1.0,1.0,1.0,1.0,1.0,0.0,0.007269382476806641
690.0,0.0,6.0,0.0,0.0,0.825,0.9,0.8571428571428571,0.8571428571428571,0.9,0.0,0.007328033447265625
700.0,0.0,6.0,0.0,0.0,0.825,0.9,0.8571428571428571,0.8571428571428571,0.9,0.0,0.007483005523681641
710.0,3.0,7.0,0.0,0.0,1.0,1.0,1.0,1.0,1.0,0.0,0.0073719024658203125
720.0,0.0,10.0,0.0,0.0,1.0,1.0,1.0,1.0,1.0,0.0,0.007915973663330078
730.0,0.0,4.0,0.0,0.0,0.6666666666666666,0.8,0.72,0.72,0.8,0.0,0.007199287414550781
740.0,0.0,6.0,0.0,0.0,0.8142857142857143,0.9,0.8538461538461538,0.8538461538461538,0.9,0.0,0.007299900054931641
750.0,2.0,8.0,0.0,0.0,1.0,1.0,1.0,1.0,1.0,0.0,0.0071086883544921875
760.0,5.0,5.0,0.0,0.0,1.0,1.0,1.0,1.0,1.0,0.0,0.007090568542480469
770.0,0.0,4.0,0.0,0.0,0.8166666666666668,0.9,0.8545454545454545,0.8545454545454545,0.9,0.0,0.007387876510620117
780.0,4.0,6.0,0.0,0.0,1.0,1.0,1.0,1.0,1.0,0.0,0.038268089294433594
790.0,0.0,8.0,0.0,0.0,0.8111111111111111,0.9,0.8529411764705882,0.8529411764705882,0.9,0.0,0.03495907783508301
800.0,5.0,5.0,0.0,0.0,1.0,1.0,1.0,1.0,1.0,0.0,0.03361105918884277
810.0,0.0,3.0,0.0,0.0,0.5285714285714286,0.7,0.5909090909090909,0.5909090909090909,0.7,0.0,0.038863420486450195
820.0,8.0,2.0,0.0,0.0,1.0,1.0,1.0,1.0,1.0,0.0,0.03512001037597656
830.0,2.0,8.0,0.0,0.0,1.0,1.0,1.0,1.0,1.0,0.0,0.03189444541931152
840.0,4.0,6.0,0.0,0.0,1.0,1.0,1.0,1.0,1.0,0.0,0.0146484375
850.0,6.0,4.0,0.0,0.0,1.0,1.0,1.0,1.0,1.0,0.0,0.009412050247192383
860.0,1.0,6.0,0.0,3.0,0.8,0.7,0.64,0.64,0.7,0.0,0.010014772415161133
870.0,4.0,6.0,0.0,0.0,1.0,1.0,1.0,1.0,1.0,0.0,0.01076197624206543
880.0,0.0,5.0,0.0,0.0,0.82,0.9,0.8555555555555555,0.8555555555555555,0.9,0.0,0.01674962043762207
890.0,0.0,7.0,0.0,0.0,0.8333333333333334,0.9,0.86,0.86,0.9,0.0,0.03610563278198242
900.0,0.0,4.0,0.0,0.0,0.4,0.6,0.46984126984126984,0.46984126984126984,0.6,0.0,0.03284621238708496
910.0,4.0,6.0,0.0,0.0,1.0,1.0,1.0,1.0,1.0,0.0,0.03459787368774414
920.0,0.0,7.0,0.0,0.0,0.8333333333333334,0.9,0.86,0.86,0.9,0.0,0.037154436111450195
930.0,2.0,8.0,0.0,0.0,1.0,1.0,1.0,1.0,1.0,0.0,0.03509998321533203
940.0,0.0,7.0,0.0,0.0,0.8333333333333334,0.9,0.86,0.86,0.9,0.0,0.03402256965637207
950.0,3.0,7.0,0.0,0.0,1.0,1.0,1.0,1.0,1.0,0.0,0.03772544860839844
960.0,7.0,3.0,0.0,0.0,1.0,1.0,1.0,1.0,1.0,0.0,0.036507606506347656
970.0,0.0,5.0,0.0,0.0,0.82,0.9,0.8555555555555555,0.8555555555555555,0.9,0.0,0.03194022178649902
980.0,0.0,8.0,0.0,0.0,0.85,0.9,0.8666666666666666,0.8666666666666666,0.9,0.0,0.020444154739379883
990.0,0.0,6.0,0.0,0.0,0.7,0.8,0.7333333333333333,0.7333333333333333,0.8,0.0,0.009446382522583008
1000.0,2.0,8.0,0.0,0.0,1.0,1.0,1.0,1.0,1.0,0.0,0.011651039123535156
1010.0,0.0,6.0,0.0,0.0,0.825,0.9,0.8571428571428571,0.8571428571428571,0.9,0.0,0.010450601577758789
1020.0,3.0,7.0,0.0,0.0,1.0,1.0,1.0,1.0,1.0,0.0,0.02424311637878418
1030.0,2.0,8.0,0.0,0.0,1.0,1.0,1.0,1.0,1.0,0.0,0.03644275665283203
1040.0,0.0,7.0,0.0,0.0,0.8333333333333334,0.9,0.86,0.86,0.9,0.0,0.034935712814331055
1050.0,0.0,4.0,0.0,0.0,0.8800000000000001,0.7,0.6742857142857144,0.6742857142857144,0.7,0.0,0.03487563133239746
1060.0,5.0,5.0,0.0,0.0,1.0,1.0,1.0,1.0,1.0,0.0,0.03216147422790527
1070.0,0.0,7.0,0.0,0.0,0.8333333333333334,0.9,0.86,0.86,0.9,0.0,0.03350210189819336
1080.0,0.0,5.0,0.0,0.0,1.0,1.0,1.0,1.0,1.0,0.0,0.03329658508300781
1090.0,0.0,2.0,0.0,0.0,0.6476190476190475,0.8,0.7138461538461538,0.7138461538461538,0.8,0.0,0.0312345027923584
1100.0,5.0,5.0,0.0,0.0,1.0,1.0,1.0,1.0,1.0,0.0,0.03274106979370117
1110.0,0.0,5.0,0.0,0.0,0.6799999999999999,0.8,0.725,0.725,0.8,0.0,0.03405404090881348
1120.0,6.0,4.0,0.0,0.0,1.0,1.0,1.0,1.0,1.0,0.0,0.03157401084899902
1130.0,0.0,5.0,0.0,0.0,0.82,0.9,0.8555555555555555,0.8555555555555555,0.9,0.0,0.010333538055419922
1140.0,2.0,8.0,0.0,0.0,1.0,1.0,1.0,1.0,1.0,0.0,0.010969877243041992
1150.0,0.0,6.0,0.0,0.0,0.8142857142857143,0.9,0.8538461538461538,0.8538461538461538,0.9,0.0,0.010254621505737305
1160.0,0.0,6.0,0.0,0.0,0.825,0.9,0.8571428571428571,0.8571428571428571,0.9,0.0,0.026168346405029297
1170.0,4.0,6.0,0.0,0.0,1.0,1.0,1.0,1.0,1.0,0.0,0.039162397384643555
1180.0,4.0,6.0,0.0,0.0,1.0,1.0,1.0,1.0,1.0,0.0,0.03672981262207031
1190.0,0.0,5.0,0.0,0.0,0.82,0.9,0.8555555555555555,0.8555555555555555,0.9,0.0,0.0329127311706543
1200.0,3.0,7.0,0.0,0.0,1.0,1.0,1.0,1.0,1.0,0.0,0.03174781799316406
1210.0,0.0,7.0,0.0,0.0,0.8333333333333334,0.9,0.86,0.86,0.9,0.0,0.03206181526184082
1220.0,0.0,4.0,0.0,0.0,0.7666666666666666,0.8,0.7644444444444445,0.7644444444444445,0.8,0.0,0.03377342224121094
1230.0,0.0,6.0,0.0,0.0,1.0,0.9,0.9428571428571428,0.9428571428571428,0.9,0.0,0.03232860565185547
1240.0,2.0,8.0,0.0,0.0,1.0,1.0,1.0,1.0,1.0,0.0,0.039700984954833984
1250.0,4.0,6.0,0.0,0.0,1.0,1.0,1.0,1.0,1.0,0.0,0.03634905815124512
1260.0,3.0,7.0,0.0,0.0,1.0,1.0,1.0,1.0,1.0,0.0,0.017099380493164062
1270.0,0.0,3.0,0.0,0.0,0.6571428571428571,0.8,0.7166666666666666,0.7166666666666666,0.8,0.0,0.010588884353637695
1280.0,0.0,6.0,0.0,0.0,0.7642857142857142,0.8,0.7538461538461538,0.7538461538461538,0.8,0.0,0.013644218444824219
1290.0,0.0,6.0,0.0,0.0,0.9142857142857143,0.9,0.8938461538461538,0.8938461538461538,0.9,0.0,0.01022958755493164
1300.0,0.0,4.0,0.0,0.0,0.8166666666666668,0.9,0.8545454545454545,0.8545454545454545,0.9,0.0,0.03093695640563965
1310.0,0.0,4.0,0.0,0.0,0.9199999999999999,0.9,0.888888888888889,0.888888888888889,0.9,0.0,0.037140846252441406
1320.0,0.0,6.0,0.0,0.0,1.0,1.0,1.0,1.0,1.0,0.0,0.032929182052612305
1330.0,0.0,6.0,0.0,0.0,1.0,0.9,0.9428571428571428,0.9428571428571428,0.9,0.0,0.03283214569091797
1340.0,0.0,5.0,0.0,0.0,0.95,0.9,0.9095238095238095,0.9095238095238095,0.9,0.0,0.0348513126373291
1350.0,0.0,4.0,0.0,0.0,1.0,1.0,1.0,1.0,1.0,0.0,0.036367177963256836
1360.0,0.0,7.0,0.0,0.0,1.0,0.9,0.9466666666666667,0.9466666666666667,0.9,0.0,0.033663272857666016
1370.0,3.0,6.0,0.0,1.0,0.9142857142857143,0.9,0.8967032967032967,0.8967032967032967,0.9,0.0,0.03263688087463379
1380.0,0.0,6.0,0.0,0.0,0.825,0.9,0.8571428571428571,0.8571428571428571,0.9,0.0,0.03250598907470703
1390.0,0.0,7.0,0.0,0.0,0.7333333333333333,0.8,0.75,0.75,0.8,0.0,0.03313779830932617
1400.0,0.0,3.0,0.0,0.0,0.82,0.9,0.8555555555555555,0.8555555555555555,0.9,0.0,0.021761655807495117
1410.0,0.0,6.0,0.0,0.0,1.0,0.9,0.9428571428571428,0.9428571428571428,0.9,0.0,0.009656190872192383
1420.0,6.0,4.0,0.0,0.0,1.0,1.0,1.0,1.0,1.0,0.0,0.012363195419311523
1430.0,5.0,5.0,0.0,0.0,1.0,1.0,1.0,1.0,1.0,0.0,0.009934663772583008
1440.0,0.0,5.0,0.0,0.0,0.82,0.9,0.8555555555555555,0.8555555555555555,0.9,0.0,0.03141331672668457
1450.0,2.0,8.0,0.0,0.0,1.0,1.0,1.0,1.0,1.0,0.0,0.03434443473815918
1460.0,6.0,4.0,0.0,0.0,1.0,1.0,1.0,1.0,1.0,0.0,0.03342747688293457
1470.0,0.0,3.0,0.0,0.0,1.0,1.0,1.0,1.0,1.0,0.0,0.03176999092102051
1480.0,0.0,6.0,0.0,0.0,1.0,1.0,1.0,1.0,1.0,0.0,0.03130841255187988
1490.0,3.0,7.0,0.0,0.0,1.0,1.0,1.0,1.0,1.0,0.0,0.040001630783081055
1500.0,1.0,9.0,0.0,0.0,1.0,1.0,1.0,1.0,1.0,0.0,0.03438544273376465
1510.0,0.0,7.0,0.0,0.0,0.9125,0.8,0.8033333333333333,0.8033333333333333,0.8,0.0,0.031831979751586914
1520.0,2.0,8.0,0.0,0.0,1.0,1.0,1.0,1.0,1.0,0.0,0.03243660926818848
1530.0,5.0,5.0,0.0,0.0,1.0,1.0,1.0,1.0,1.0,0.0,0.03175854682922363
1540.0,3.0,7.0,0.0,0.0,1.0,1.0,1.0,1.0,1.0,0.0,0.01526021957397461
1550.0,2.0,8.0,0.0,0.0,1.0,1.0,1.0,1.0,1.0,0.0,0.009042978286743164
1560.0,0.0,3.0,0.0,0.0,1.0,1.0,1.0,1.0,1.0,0.0,0.011051416397094727
1570.0,6.0,4.0,0.0,0.0,1.0,1.0,1.0,1.0,1.0,0.0,0.011319398880004883
1580.0,1.0,9.0,0.0,0.0,1.0,1.0,1.0,1.0,1.0,0.0,0.03127908706665039
1590.0,0.0,3.0,0.0,0.0,0.6416666666666667,0.8,0.7116883116883116,0.7116883116883116,0.8,0.0,0.03632020950317383
1600.0,0.0,4.0,0.0,0.0,0.8166666666666668,0.9,0.8545454545454545,0.8545454545454545,0.9,0.0,0.039095401763916016
1610.0,0.0,9.0,0.0,1.0,0.8099999999999999,0.9,0.8526315789473685,0.8526315789473685,0.9,0.0,0.0348353385925293
1620.0,0.0,5.0,0.0,0.0,1.0,1.0,1.0,1.0,1.0,0.0,0.03170490264892578
1630.0,5.0,5.0,0.0,0.0,1.0,1.0,1.0,1.0,1.0,0.0,0.03354001045227051
1640.0,0.0,4.0,0.0,0.0,1.0,1.0,1.0,1.0,1.0,0.0,0.033217668533325195
1650.0,1.0,9.0,0.0,0.0,1.0,1.0,1.0,1.0,1.0,0.0,0.03294968605041504
1660.0,0.0,5.0,0.0,0.0,1.0,1.0,1.0,1.0,1.0,0.0,0.0329890251159668
1670.0,4.0,6.0,0.0,0.0,1.0,1.0,1.0,1.0,1.0,0.0,0.03645062446594238
1680.0,0.0,3.0,0.0,0.0,0.9166666666666667,0.9,0.8878787878787879,0.8878787878787879,0.9,0.0,0.011183023452758789
1690.0,2.0,8.0,0.0,0.0,1.0,1.0,1.0,1.0,1.0,0.0,0.010441064834594727
1700.0,0.0,5.0,0.0,0.0,0.82,0.9,0.8555555555555555,0.8555555555555555,0.9,0.0,0.010955333709716797
1710.0,5.0,5.0,0.0,0.0,1.0,1.0,1.0,1.0,1.0,0.0,0.009186983108520508
1720.0,3.0,7.0,0.0,0.0,1.0,1.0,1.0,1.0,1.0,0.0,0.03045821189880371
1730.0,3.0,7.0,0.0,0.0,1.0,1.0,1.0,1.0,1.0,0.0,0.03924274444580078
1740.0,3.0,7.0,0.0,0.0,1.0,1.0,1.0,1.0,1.0,0.0,0.034050703048706055
1750.0,3.0,7.0,0.0,0.0,1.0,1.0,1.0,1.0,1.0,0.0,0.0373992919921875
1760.0,6.0,4.0,0.0,0.0,1.0,1.0,1.0,1.0,1.0,0.0,0.039166927337646484
1770.0,5.0,5.0,0.0,0.0,1.0,1.0,1.0,1.0,1.0,0.0,0.03420305252075195
1780.0,2.0,8.0,0.0,0.0,1.0,1.0,1.0,1.0,1.0,0.0,0.03833508491516113
1790.0,3.0,7.0,0.0,0.0,1.0,1.0,1.0,1.0,1.0,0.0,0.03829646110534668
1800.0,6.0,4.0,0.0,0.0,1.0,1.0,1.0,1.0,1.0,0.0,0.03863978385925293
1810.0,2.0,8.0,0.0,0.0,1.0,1.0,1.0,1.0,1.0,0.0,0.013249397277832031
1820.0,3.0,7.0,0.0,0.0,1.0,1.0,1.0,1.0,1.0,0.0,0.010474681854248047
1830.0,0.0,5.0,0.0,0.0,0.6833333333333333,0.7,0.6678787878787877,0.6678787878787877,0.7,0.0,0.011089086532592773
1840.0,0.0,5.0,0.0,0.0,0.9166666666666667,0.9,0.8878787878787879,0.8878787878787879,0.9,0.0,0.009942293167114258
1850.0,5.0,5.0,0.0,0.0,1.0,1.0,1.0,1.0,1.0,0.0,0.03895425796508789
1860.0,7.0,3.0,0.0,0.0,1.0,1.0,1.0,1.0,1.0,0.0,0.03507804870605469
1870.0,0.0,7.0,0.0,0.0,0.8333333333333334,0.9,0.86,0.86,0.9,0.0,0.033751726150512695
1880.0,0.0,5.0,0.0,0.0,0.82,0.9,0.8555555555555555,0.8555555555555555,0.9,0.0,0.031278371810913086
1890.0,4.0,6.0,0.0,0.0,1.0,1.0,1.0,1.0,1.0,0.0,0.03809618949890137
1900.0,5.0,5.0,0.0,0.0,1.0,1.0,1.0,1.0,1.0,0.0,0.03737044334411621
1910.0,0.0,7.0,0.0,0.0,1.0,1.0,1.0,1.0,1.0,0.0,0.03510308265686035
1920.0,4.0,6.0,0.0,0.0,1.0,1.0,1.0,1.0,1.0,0.0,0.03687596321105957
1930.0,3.0,7.0,0.0,0.0,1.0,1.0,1.0,1.0,1.0,0.0,0.03553032875061035
1940.0,4.0,6.0,0.0,0.0,1.0,1.0,1.0,1.0,1.0,0.0,0.022562742233276367
1950.0,0.0,6.0,0.0,0.0,1.0,0.9,0.9428571428571428,0.9428571428571428,0.9,0.0,0.009771108627319336
1960.0,0.0,5.0,0.0,0.0,0.78,0.8,0.7704545454545453,0.7704545454545453,0.8,0.0,0.010652780532836914
1970.0,0.0,4.0,0.0,0.0,1.0,1.0,1.0,1.0,1.0,0.0,0.010444879531860352
1980.0,0.0,5.0,0.0,0.0,1.0,1.0,1.0,1.0,1.0,0.0,0.03744816780090332
1990.0,0.0,3.0,0.0,0.0,1.0,1.0,1.0,1.0,1.0,0.0,0.03500509262084961
2000.0,0.0,7.0,0.0,0.0,0.8333333333333334,0.9,0.86,0.86,0.9,0.0,0.035080671310424805
2010.0,0.0,5.0,0.0,0.0,0.6416666666666667,0.8,0.7116883116883116,0.7116883116883116,0.8,0.0,0.035877227783203125
2020.0,0.0,2.0,0.0,0.0,0.8125,0.9,0.8533333333333333,0.8533333333333333,0.9,0.0,0.03237295150756836
2030.0,0.0,6.0,0.0,0.0,1.0,1.0,1.0,1.0,1.0,0.0,0.03224611282348633
2040.0,6.0,4.0,0.0,0.0,1.0,1.0,1.0,1.0,1.0,0.0,0.03143429756164551
2050.0,3.0,7.0,0.0,0.0,1.0,1.0,1.0,1.0,1.0,0.0,0.031887054443359375
2060.0,4.0,6.0,0.0,0.0,1.0,1.0,1.0,1.0,1.0,0.0,0.03069901466369629
2070.0,1.0,9.0,0.0,0.0,1.0,1.0,1.0,1.0,1.0,0.0,0.034372568130493164
2080.0,0.0,6.0,0.0,0.0,0.7,0.8,0.7333333333333333,0.7333333333333333,0.8,0.0,0.010335922241210938
2090.0,3.0,7.0,0.0,0.0,1.0,1.0,1.0,1.0,1.0,0.0,0.00985407829284668
2100.0,2.0,8.0,0.0,0.0,1.0,1.0,1.0,1.0,1.0,0.0,0.009601354598999023
2110.0,0.0,3.0,0.0,0.0,1.0,1.0,1.0,1.0,1.0,0.0,0.033498525619506836
2120.0,0.0,7.0,0.0,0.0,0.8125,0.9,0.8533333333333333,0.8533333333333333,0.9,0.0,0.04073977470397949
2130.0,1.0,9.0,0.0,0.0,1.0,1.0,1.0,1.0,1.0,0.0,0.034193992614746094
2140.0,4.0,6.0,0.0,0.0,1.0,1.0,1.0,1.0,1.0,0.0,0.03129005432128906
2150.0,0.0,6.0,0.0,0.0,1.0,1.0,1.0,1.0,1.0,0.0,0.03185224533081055
2160.0,0.0,7.0,0.0,0.0,1.0,1.0,1.0,1.0,1.0,0.0,0.0307004451751709
2170.0,0.0,5.0,0.0,0.0,0.82,0.9,0.8555555555555555,0.8555555555555555,0.9,0.0,0.032506704330444336
2180.0,5.0,5.0,0.0,0.0,1.0,1.0,1.0,1.0,1.0,0.0,0.038163185119628906
2190.0,0.0,7.0,0.0,0.0,0.8,0.8,0.8,0.8,0.8,0.0,0.0316317081451416
2200.0,4.0,6.0,0.0,0.0,1.0,1.0,1.0,1.0,1.0,0.0,0.03438854217529297
2210.0,3.0,7.0,0.0,0.0,1.0,1.0,1.0,1.0,1.0,0.0,0.011625051498413086
2220.0,0.0,5.0,0.0,0.0,0.82,0.9,0.8555555555555555,0.8555555555555555,0.9,0.0,0.011538982391357422
2230.0,0.0,6.0,0.0,0.0,1.0,0.9,0.9428571428571428,0.9428571428571428,0.9,0.0,0.010910987854003906
2240.0,0.0,6.0,0.0,0.0,0.825,0.9,0.8571428571428571,0.8571428571428571,0.9,0.0,0.03332400321960449
2250.0,4.0,6.0,0.0,0.0,1.0,1.0,1.0,1.0,1.0,0.0,0.03283977508544922
2260.0,0.0,8.0,0.0,0.0,0.85,0.9,0.8666666666666666,0.8666666666666666,0.9,0.0,0.03098773956298828
2270.0,0.0,6.0,0.0,0.0,0.825,0.9,0.8571428571428571,0.8571428571428571,0.9,0.0,0.030910491943359375
2280.0,0.0,3.0,0.0,0.0,0.8142857142857143,0.9,0.8538461538461538,0.8538461538461538,0.9,0.0,0.037613630294799805
2290.0,0.0,5.0,0.0,0.0,0.8166666666666668,0.9,0.8545454545454545,0.8545454545454545,0.9,0.0,0.03586983680725098
2300.0,0.0,6.0,0.0,0.0,0.9333333333333332,0.9,0.8933333333333333,0.8933333333333333,0.9,0.0,0.037114858627319336
2310.0,0.0,6.0,0.0,0.0,1.0,1.0,1.0,1.0,1.0,0.0,0.0373234748840332
2320.0,1.0,9.0,0.0,0.0,1.0,1.0,1.0,1.0,1.0,0.0,0.03811073303222656
2330.0,0.0,5.0,0.0,0.0,0.82,0.9,0.8555555555555555,0.8555555555555555,0.9,0.0,0.022668838500976562
2340.0,3.0,7.0,0.0,0.0,1.0,1.0,1.0,1.0,1.0,0.0,0.009122371673583984
2350.0,0.0,7.0,0.0,0.0,1.0,1.0,1.0,1.0,1.0,0.0,0.011711835861206055
2360.0,3.0,7.0,0.0,0.0,1.0,1.0,1.0,1.0,1.0,0.0,0.010683059692382812
2370.0,2.0,8.0,0.0,0.0,1.0,1.0,1.0,1.0,1.0,0.0,0.0315403938293457
2380.0,0.0,3.0,0.0,0.0,0.9166666666666667,0.9,0.8878787878787879,0.8878787878787879,0.9,0.0,0.0346066951751709
2390.0,3.0,7.0,0.0,0.0,1.0,1.0,1.0,1.0,1.0,0.0,0.031815528869628906
2400.0,0.0,7.0,0.0,0.0,1.0,0.9,0.9400000000000001,0.9400000000000001,0.9,0.0,0.030927181243896484
2410.0,4.0,6.0,0.0,0.0,1.0,1.0,1.0,1.0,1.0,0.0,0.036754608154296875
2420.0,0.0,4.0,0.0,0.0,0.8,0.8,0.8,0.8,0.8,0.0,0.031785011291503906
2430.0,6.0,4.0,0.0,0.0,1.0,1.0,1.0,1.0,1.0,0.0,0.031327247619628906
2440.0,3.0,7.0,0.0,0.0,1.0,1.0,1.0,1.0,1.0,0.0,0.037169456481933594
2450.0,0.0,6.0,0.0,0.0,1.0,0.8,0.8666666666666666,0.8666666666666666,0.8,0.0,0.03238511085510254
2460.0,0.0,4.0,0.0,0.0,0.8166666666666668,0.9,0.8545454545454545,0.8545454545454545,0.9,0.0,0.035146236419677734
2470.0,0.0,5.0,0.0,0.0,1.0,1.0,1.0,1.0,1.0,0.0,0.012171030044555664
2480.0,0.0,7.0,0.0,0.0,0.95,0.9,0.9,0.9,0.9,0.0,0.010898351669311523
2490.0,5.0,5.0,0.0,0.0,1.0,1.0,1.0,1.0,1.0,0.0,0.009873390197753906
2500.0,4.0,6.0,0.0,0.0,1.0,1.0,1.0,1.0,1.0,0.0,0.03488016128540039
2510.0,0.0,3.0,0.0,0.0,0.825,0.9,0.8571428571428571,0.8571428571428571,0.9,0.0,0.03748130798339844
2520.0,0.0,6.0,0.0,0.0,1.0,1.0,1.0,1.0,1.0,0.0,0.035658836364746094
2530.0,0.0,5.0,0.0,0.0,0.825,0.9,0.8571428571428571,0.8571428571428571,0.9,0.0,0.03969526290893555
2540.0,0.0,4.0,0.0,0.0,0.6666666666666666,0.8,0.72,0.72,0.8,0.0,0.03347587585449219
2550.0,0.0,7.0,0.0,0.0,0.8333333333333334,0.9,0.86,0.86,0.9,0.0,0.03629589080810547
2560.0,0.0,5.0,0.0,0.0,1.0,1.0,1.0,1.0,1.0,0.0,0.03330421447753906
2570.0,3.0,7.0,0.0,0.0,1.0,1.0,1.0,1.0,1.0,0.0,0.03461265563964844
2580.0,4.0,6.0,0.0,0.0,1.0,1.0,1.0,1.0,1.0,0.0,0.041016340255737305
2590.0,0.0,8.0,0.0,0.0,1.0,1.0,1.0,1.0,1.0,0.0,0.012387275695800781
2600.0,0.0,5.0,0.0,0.0,1.0,1.0,1.0,1.0,1.0,0.0,0.01203608512878418
2610.0,1.0,9.0,0.0,0.0,1.0,1.0,1.0,1.0,1.0,0.0,0.011216163635253906
2620.0,4.0,6.0,0.0,0.0,1.0,1.0,1.0,1.0,1.0,0.0,0.03634381294250488
2630.0,0.0,6.0,0.0,0.0,0.9333333333333332,0.9,0.8933333333333333,0.8933333333333333,0.9,0.0,0.03944563865661621
2640.0,3.0,7.0,0.0,0.0,1.0,1.0,1.0,1.0,1.0,0.0,0.03223681449890137
2650.0,4.0,6.0,0.0,0.0,1.0,1.0,1.0,1.0,1.0,0.0,0.03706717491149902
2660.0,0.0,7.0,0.0,0.0,0.8333333333333334,0.9,0.86,0.86,0.9,0.0,0.036740779876708984
2670.0,0.0,6.0,0.0,0.0,1.0,1.0,1.0,1.0,1.0,0.0,0.03717684745788574
2680.0,6.0,4.0,0.0,0.0,1.0,1.0,1.0,1.0,1.0,0.0,0.032981157302856445
2690.0,0.0,3.0,0.0,0.0,0.725,0.8,0.7571428571428571,0.7571428571428571,0.8,0.0,0.03469347953796387
2700.0,0.0,4.0,0.0,0.0,0.8166666666666668,0.9,0.8545454545454545,0.8545454545454545,0.9,0.0,0.03698873519897461
2710.0,2.0,8.0,0.0,0.0,1.0,1.0,1.0,1.0,1.0,0.0,0.010822534561157227
2720.0,3.0,7.0,0.0,0.0,1.0,1.0,1.0,1.0,1.0,0.39791107177734375,0.00905919075012207
2730.0,0.0,5.0,0.0,0.0,0.82,0.9,0.8555555555555555,0.8555555555555555,0.9,0.0,0.00920414924621582
2740.0,0.0,3.0,0.0,0.0,1.0,1.0,1.0,1.0,1.0,0.0,0.018677234649658203
2750.0,5.0,5.0,0.0,0.0,1.0,1.0,1.0,1.0,1.0,0.0,0.042027950286865234
2760.0,4.0,6.0,0.0,0.0,1.0,1.0,1.0,1.0,1.0,0.0,0.031079769134521484
2770.0,0.0,5.0,0.0,0.0,0.8,0.8,0.8,0.8,0.8,0.0,0.03131365776062012
2780.0,3.0,7.0,0.0,0.0,1.0,1.0,1.0,1.0,1.0,0.0,0.03624606132507324
2790.0,0.0,3.0,0.0,0.0,0.8166666666666668,0.8,0.7974025974025973,0.7974025974025973,0.8,0.0,0.03210806846618652
2800.0,4.0,6.0,0.0,0.0,1.0,1.0,1.0,1.0,1.0,0.0,0.03713798522949219
2810.0,3.0,7.0,0.0,0.0,1.0,1.0,1.0,1.0,1.0,0.0,0.03710579872131348
2820.0,3.0,7.0,0.0,0.0,1.0,1.0,1.0,1.0,1.0,0.0,0.03369760513305664
2830.0,0.0,6.0,0.0,0.0,1.0,0.9,0.946153846153846,0.946153846153846,0.9,0.0,0.0346074104309082
2840.0,0.0,4.0,0.0,0.0,0.8,0.8,0.8,0.8,0.8,0.0,0.00935983657836914
2850.0,4.0,6.0,0.0,0.0,1.0,1.0,1.0,1.0,1.0,0.0,0.011314630508422852
2860.0,6.0,4.0,0.0,0.0,1.0,1.0,1.0,1.0,1.0,0.0,0.01104879379272461
2870.0,0.0,7.0,0.0,0.0,1.0,1.0,1.0,1.0,1.0,0.0,0.03073859214782715
2880.0,0.0,7.0,0.0,0.0,1.0,1.0,1.0,1.0,1.0,0.0,0.03675556182861328
2890.0,0.0,5.0,0.0,0.0,1.0,0.9,0.9454545454545453,0.9454545454545453,0.9,0.0,0.03624892234802246
2900.0,0.0,6.0,0.0,0.0,1.0,1.0,1.0,1.0,1.0,0.0,0.038450002670288086
2910.0,0.0,7.0,0.0,0.0,0.8333333333333334,0.9,0.86,0.86,0.9,0.0,0.03165578842163086
2920.0,0.0,6.0,0.0,0.0,0.7142857142857142,0.8,0.7538461538461538,0.7538461538461538,0.8,0.0,0.032884836196899414
2930.0,4.0,6.0,0.0,0.0,1.0,1.0,1.0,1.0,1.0,0.0,0.03374481201171875
2940.0,0.0,8.0,0.0,0.0,0.8,0.8,0.8,0.8,0.8,0.0,0.03690218925476074
2950.0,0.0,6.0,0.0,0.0,0.9333333333333332,0.9,0.8933333333333333,0.8933333333333333,0.9,0.0,0.037546396255493164
2960.0,2.0,8.0,0.0,0.0,1.0,1.0,1.0,1.0,1.0,0.0,0.016475677490234375
2970.0,5.0,5.0,0.0,0.0,1.0,1.0,1.0,1.0,1.0,0.0,0.008853673934936523
2980.0,0.0,6.0,0.0,0.0,0.825,0.9,0.8571428571428571,0.8571428571428571,0.9,0.0,0.010718822479248047
2990.0,0.0,4.0,0.0,0.0,1.0,1.0,1.0,1.0,1.0,0.0,0.009312868118286133
3000.0,0.0,10.0,0.0,0.0,1.0,1.0,1.0,1.0,1.0,0.0,0.03695082664489746
3010.0,0.0,4.0,0.0,0.0,0.8166666666666668,0.9,0.8545454545454545,0.8545454545454545,0.9,0.0,0.03543233871459961
3020.0,0.0,5.0,0.0,0.0,1.0,1.0,1.0,1.0,1.0,0.0,0.036631107330322266
3030.0,4.0,6.0,0.0,0.0,1.0,1.0,1.0,1.0,1.0,0.0,0.03144216537475586
3040.0,6.0,4.0,0.0,0.0,1.0,1.0,1.0,1.0,1.0,0.0,0.034857988357543945
3050.0,0.0,6.0,0.0,0.0,1.0,1.0,1.0,1.0,1.0,0.0,0.03383278846740723
3060.0,3.0,7.0,0.0,0.0,1.0,1.0,1.0,1.0,1.0,0.0,0.03701972961425781
3070.0,4.0,6.0,0.0,0.0,1.0,1.0,1.0,1.0,1.0,0.0,0.036776065826416016
3080.0,0.0,6.0,0.0,0.0,0.7,0.8,0.7333333333333333,0.7333333333333333,0.8,0.0,0.0368044376373291
3090.0,0.0,6.0,0.0,0.0,1.0,0.9,0.9428571428571428,0.9428571428571428,0.9,0.0,0.014214038848876953
3100.0,2.0,7.0,1.0,0.0,0.9333333333333333,0.9,0.9066666666666666,0.9066666666666666,0.9,0.0,0.010246515274047852
3110.0,6.0,4.0,0.0,0.0,1.0,1.0,1.0,1.0,1.0,0.0,0.011893749237060547
3120.0,0.0,7.0,0.0,0.0,0.8333333333333334,0.9,0.86,0.86,0.9,0.0,0.0385894775390625
3130.0,3.0,7.0,0.0,0.0,1.0,1.0,1.0,1.0,1.0,0.0,0.03483128547668457
3140.0,0.0,5.0,0.0,0.0,0.75,0.8,0.7478787878787878,0.7478787878787878,0.8,0.0,0.03724026679992676
3150.0,5.0,5.0,0.0,0.0,1.0,1.0,1.0,1.0,1.0,0.0,0.03222155570983887
3160.0,0.0,4.0,0.0,0.0,0.6666666666666666,0.8,0.72,0.72,0.8,0.0,0.03633904457092285
3170.0,0.0,4.0,0.0,0.0,1.0,0.9,0.9444444444444444,0.9444444444444444,0.9,0.0,0.03310203552246094
3180.0,0.0,5.0,0.0,0.0,0.82,0.9,0.8555555555555555,0.8555555555555555,0.9,0.0,0.03616619110107422
3190.0,2.0,8.0,0.0,0.0,1.0,1.0,1.0,1.0,1.0,0.0,0.03233981132507324
3200.0,2.0,8.0,0.0,0.0,1.0,1.0,1.0,1.0,1.0,0.0,0.03713512420654297
3210.0,0.0,8.0,0.0,0.0,1.0,0.9,0.9333333333333333,0.9333333333333333,0.9,0.0,0.011600494384765625
3220.0,3.0,7.0,0.0,0.0,1.0,1.0,1.0,1.0,1.0,0.0,0.010783910751342773
3230.0,0.0,6.0,0.0,0.0,1.0,1.0,1.0,1.0,1.0,0.3964202404022217,0.01007390022277832
3240.0,0.0,3.0,0.0,0.0,0.9166666666666667,0.9,0.8878787878787879,0.8878787878787879,0.9,0.0,0.01141810417175293
3250.0,5.0,5.0,0.0,0.0,1.0,1.0,1.0,1.0,1.0,0.0,0.017928123474121094
3260.0,5.0,5.0,0.0,0.0,1.0,1.0,1.0,1.0,1.0,0.0,0.04118776321411133
3270.0,0.0,5.0,0.0,0.0,1.0,0.9,0.9444444444444444,0.9444444444444444,0.9,0.0,0.031080961227416992
3280.0,4.0,6.0,0.0,0.0,1.0,1.0,1.0,1.0,1.0,0.0,0.03423762321472168
3290.0,4.0,5.0,1.0,0.0,0.9199999999999999,0.9,0.901010101010101,0.901010101010101,0.9,0.0,0.0344996452331543
3300.0,2.0,8.0,0.0,0.0,1.0,1.0,1.0,1.0,1.0,0.0,0.030442237854003906
3310.0,4.0,6.0,0.0,0.0,1.0,1.0,1.0,1.0,1.0,0.0,0.03482341766357422
3320.0,3.0,7.0,0.0,0.0,1.0,1.0,1.0,1.0,1.0,0.0,0.03273344039916992
3330.0,0.0,6.0,0.0,0.0,1.0,1.0,1.0,1.0,1.0,0.0,0.03631281852722168
3340.0,6.0,4.0,0.0,0.0,1.0,1.0,1.0,1.0,1.0,0.0,0.035717010498046875
3350.0,0.0,3.0,0.0,0.0,0.5285714285714286,0.7,0.5909090909090909,0.5909090909090909,0.7,0.0,0.013823270797729492
3360.0,3.0,7.0,0.0,0.0,1.0,1.0,1.0,1.0,1.0,0.0,0.010696887969970703
3370.0,0.0,4.0,0.0,0.0,0.72,0.7,0.6984126984126984,0.6984126984126984,0.7,0.0,0.008994102478027344
3380.0,4.0,5.0,0.0,1.0,0.9166666666666667,0.9,0.898989898989899,0.898989898989899,0.9,0.0,0.03267192840576172
3390.0,5.0,5.0,0.0,0.0,1.0,1.0,1.0,1.0,1.0,0.0,0.03481626510620117
3400.0,0.0,6.0,0.0,0.0,1.0,1.0,1.0,1.0,1.0,0.0,0.03247976303100586
3410.0,0.0,5.0,0.0,0.0,0.6799999999999999,0.8,0.725,0.725,0.8,0.0,0.03747057914733887
3420.0,0.0,4.0,0.0,0.0,0.8166666666666668,0.9,0.8545454545454545,0.8545454545454545,0.9,0.0,0.03635263442993164
3430.0,5.0,5.0,0.0,0.0,1.0,1.0,1.0,1.0,1.0,0.0,0.03231215476989746
3440.0,0.0,6.0,0.0,0.0,1.0,1.0,1.0,1.0,1.0,0.0,0.0350193977355957
3450.0,4.0,6.0,0.0,0.0,1.0,1.0,1.0,1.0,1.0,0.0,0.033377647399902344
3460.0,5.0,5.0,0.0,0.0,1.0,1.0,1.0,1.0,1.0,0.0,0.033416748046875
3470.0,1.0,9.0,0.0,0.0,1.0,1.0,1.0,1.0,1.0,0.0,0.026862144470214844
3480.0,0.0,4.0,0.0,0.0,1.0,1.0,1.0,1.0,1.0,0.0,0.01042485237121582
3490.0,0.0,5.0,0.0,0.0,0.7571428571428571,0.8,0.7595238095238095,0.7595238095238095,0.8,0.0,0.01051640510559082
3500.0,3.0,6.0,1.0,0.0,0.925,0.9,0.9032967032967033,0.9032967032967033,0.9,0.0,0.008603572845458984
3510.0,3.0,7.0,0.0,0.0,1.0,1.0,1.0,1.0,1.0,0.0,0.03534340858459473
3520.0,0.0,4.0,0.0,0.0,0.82,0.9,0.8555555555555555,0.8555555555555555,0.9,0.0,0.03706216812133789
3530.0,3.0,7.0,0.0,0.0,1.0,1.0,1.0,1.0,1.0,0.0,0.03548026084899902
3540.0,0.0,7.0,0.0,0.0,0.95,0.9,0.9,0.9,0.9,0.0,0.03582334518432617
3550.0,0.0,5.0,0.0,0.0,1.0,0.9,0.9444444444444444,0.9444444444444444,0.9,0.0,0.0360569953918457
3560.0,0.0,6.0,0.0,0.0,0.6142857142857142,0.7,0.6538461538461539,0.6538461538461539,0.7,0.0,0.032955169677734375
3570.0,7.0,3.0,0.0,0.0,1.0,1.0,1.0,1.0,1.0,0.0,0.035982608795166016
3580.0,0.0,5.0,0.0,0.0,0.82,0.9,0.8555555555555555,0.8555555555555555,0.9,0.0,0.030885696411132812
3590.0,4.0,6.0,0.0,0.0,1.0,1.0,1.0,1.0,1.0,0.0,0.033420562744140625
3600.0,1.0,9.0,0.0,0.0,1.0,1.0,1.0,1.0,1.0,0.0,0.011336326599121094
3610.0,0.0,6.0,0.0,0.0,0.6142857142857142,0.7,0.6538461538461539,0.6538461538461539,0.7,0.0,0.010496139526367188
3620.0,7.0,3.0,0.0,0.0,1.0,1.0,1.0,1.0,1.0,0.0,0.009590625762939453
3630.0,3.0,7.0,0.0,0.0,1.0,1.0,1.0,1.0,1.0,0.0,0.0347287654876709
3640.0,6.0,4.0,0.0,0.0,1.0,1.0,1.0,1.0,1.0,0.0,0.03775453567504883
3650.0,0.0,5.0,0.0,0.0,1.0,0.9,0.9444444444444444,0.9444444444444444,0.9,0.0,0.03684878349304199
3660.0,0.0,4.0,0.0,0.0,1.0,1.0,1.0,1.0,1.0,0.0,0.033200979232788086
3670.0,4.0,6.0,0.0,0.0,1.0,1.0,1.0,1.0,1.0,0.0,0.032659053802490234
3680.0,0.0,6.0,0.0,0.0,1.0,1.0,1.0,1.0,1.0,0.0,0.03537154197692871
3690.0,0.0,6.0,0.0,0.0,1.0,1.0,1.0,1.0,1.0,0.0,0.035284996032714844
3700.0,0.0,8.0,0.0,0.0,0.85,0.9,0.8666666666666666,0.8666666666666666,0.9,0.0,0.03347492218017578
3710.0,0.0,7.0,0.0,0.0,1.0,0.9,0.9466666666666667,0.9466666666666667,0.9,0.0,0.03394317626953125
3720.0,0.0,3.0,0.0,0.0,0.9,0.9,0.9,0.9,0.9,0.0,0.013418912887573242
3730.0,0.0,4.0,0.0,0.0,1.0,1.0,1.0,1.0,1.0,0.0,0.010974884033203125
3740.0,2.0,8.0,0.0,0.0,1.0,1.0,1.0,1.0,1.0,0.0,0.008804082870483398
3750.0,0.0,7.0,0.0,0.0,1.0,1.0,1.0,1.0,1.0,0.0,0.034697771072387695
3760.0,0.0,4.0,0.0,0.0,1.0,1.0,1.0,1.0,1.0,0.0,0.036850929260253906
3770.0,4.0,6.0,0.0,0.0,1.0,1.0,1.0,1.0,1.0,0.0,0.03534364700317383
3780.0,2.0,8.0,0.0,0.0,1.0,1.0,1.0,1.0,1.0,0.0,0.03693580627441406
3790.0,0.0,4.0,0.0,0.0,0.5,0.7,0.5805555555555555,0.5805555555555555,0.7,0.0,0.03158140182495117
3800.0,0.0,4.0,0.0,0.0,0.9199999999999999,0.9,0.888888888888889,0.888888888888889,0.9,0.0,0.0366215705871582
3810.0,0.0,7.0,0.0,0.0,0.8125,0.9,0.8533333333333333,0.8533333333333333,0.9,0.0,0.03846383094787598
3820.0,0.0,4.0,0.0,0.0,0.725,0.8,0.7571428571428572,0.7571428571428572,0.8,0.0,0.032061100006103516
3830.0,0.0,5.0,0.0,0.0,0.82,0.9,0.8555555555555555,0.8555555555555555,0.9,0.0,0.035999298095703125
3840.0,0.0,4.0,0.0,0.0,0.9199999999999999,0.9,0.9,0.9,0.9,0.0,0.011714458465576172
3850.0,0.0,5.0,0.0,0.0,1.0,1.0,1.0,1.0,1.0,0.0,0.010817289352416992
3860.0,0.0,7.0,0.0,0.0,0.8333333333333334,0.9,0.86,0.86,0.9,0.0,0.01074981689453125
3870.0,0.0,4.0,0.0,0.0,0.6666666666666666,0.8,0.72,0.72,0.8,0.0,0.03166913986206055
3880.0,8.0,2.0,0.0,0.0,1.0,1.0,1.0,1.0,1.0,0.0,0.040503740310668945
3890.0,1.0,9.0,0.0,0.0,1.0,1.0,1.0,1.0,1.0,0.0,0.0349888801574707
3900.0,0.0,2.0,0.0,0.0,0.8333333333333334,0.9,0.86,0.86,0.9,0.0,0.03328871726989746
3910.0,3.0,7.0,0.0,0.0,1.0,1.0,1.0,1.0,1.0,0.0,0.03705716133117676
3920.0,4.0,6.0,0.0,0.0,1.0,1.0,1.0,1.0,1.0,0.0,0.032131195068359375
3930.0,0.0,7.0,0.0,0.0,0.8125,0.9,0.8533333333333333,0.8533333333333333,0.9,0.0,0.0360255241394043
3940.0,1.0,9.0,0.0,0.0,1.0,1.0,1.0,1.0,1.0,0.0,0.030861616134643555
3950.0,0.0,7.0,0.0,0.0,1.0,1.0,1.0,1.0,1.0,0.0,0.03676199913024902
3960.0,0.0,3.0,0.0,0.0,0.8142857142857143,0.9,0.8538461538461538,0.8538461538461538,0.9,0.0,0.016071319580078125
3970.0,3.0,7.0,0.0,0.0,1.0,1.0,1.0,1.0,1.0,0.0,0.009788274765014648
3980.0,0.0,6.0,0.0,0.0,0.825,0.9,0.8571428571428571,0.8571428571428571,0.9,0.0,0.010139942169189453
3990.0,0.0,4.0,0.0,0.0,0.8166666666666668,0.9,0.8545454545454545,0.8545454545454545,0.9,0.0,0.01046609878540039
4000.0,0.0,6.0,0.0,0.0,0.825,0.9,0.8571428571428571,0.8571428571428571,0.9,0.0,0.03498125076293945
4010.0,0.0,8.0,0.0,0.0,0.85,0.9,0.8666666666666666,0.8666666666666666,0.9,0.0,0.036988019943237305
4020.0,0.0,6.0,0.0,0.0,0.9333333333333332,0.9,0.8933333333333333,0.8933333333333333,0.9,0.0,0.03086376190185547
4030.0,0.0,6.0,0.0,0.0,0.825,0.9,0.8571428571428571,0.8571428571428571,0.9,0.0,0.036545515060424805
4040.0,4.0,6.0,0.0,0.0,1.0,1.0,1.0,1.0,1.0,0.0,0.03669929504394531
4050.0,0.0,6.0,0.0,0.0,0.9,0.9,0.9,0.9,0.9,0.0,0.037470340728759766
4060.0,0.0,6.0,0.0,0.0,0.825,0.9,0.8571428571428571,0.8571428571428571,0.9,0.0,0.03071737289428711
4070.0,0.0,5.0,0.0,0.0,0.82,0.9,0.8555555555555555,0.8555555555555555,0.9,0.0,0.0348052978515625
4080.0,5.0,5.0,0.0,0.0,1.0,1.0,1.0,1.0,1.0,0.0,0.03459954261779785
4090.0,0.0,8.0,0.0,0.0,1.0,1.0,1.0,1.0,1.0,0.0,0.011238336563110352
4100.0,0.0,4.0,0.0,0.0,1.0,1.0,1.0,1.0,1.0,0.3965764045715332,0.011383533477783203
4110.0,0.0,3.0,0.0,0.0,0.8142857142857143,0.9,0.8538461538461538,0.8538461538461538,0.9,0.0,0.01110219955444336
4120.0,0.0,7.0,0.0,0.0,0.8333333333333334,0.9,0.86,0.86,0.9,0.0,0.033525943756103516
4130.0,0.0,7.0,0.0,0.0,1.0,0.9,0.9400000000000001,0.9400000000000001,0.9,0.0,0.039949893951416016
4140.0,8.0,2.0,0.0,0.0,1.0,1.0,1.0,1.0,1.0,0.0,0.036032915115356445
4150.0,0.0,7.0,0.0,0.0,0.8333333333333334,0.9,0.86,0.86,0.9,0.0,0.03132200241088867
4160.0,0.0,6.0,0.0,0.0,0.825,0.9,0.8571428571428571,0.8571428571428571,0.9,0.0,0.036698102951049805
4170.0,3.0,7.0,0.0,0.0,1.0,1.0,1.0,1.0,1.0,0.0,0.03534865379333496
4180.0,5.0,5.0,0.0,0.0,1.0,1.0,1.0,1.0,1.0,0.0,0.03579235076904297
4190.0,0.0,6.0,0.0,0.0,0.825,0.9,0.8571428571428571,0.8571428571428571,0.9,0.0,0.03275418281555176
4200.0,3.0,7.0,0.0,0.0,1.0,1.0,1.0,1.0,1.0,0.0,0.03605365753173828
4210.0,1.0,9.0,0.0,0.0,1.0,1.0,1.0,1.0,1.0,0.0,0.010530471801757812
4220.0,0.0,3.0,0.0,0.0,0.5285714285714286,0.7,0.5909090909090909,0.5909090909090909,0.7,0.0,0.010890007019042969
4230.0,0.0,6.0,0.0,0.0,1.0,1.0,1.0,1.0,1.0,0.0,0.010269880294799805
4240.0,1.0,9.0,0.0,0.0,1.0,1.0,1.0,1.0,1.0,0.0,0.031682491302490234
4250.0,4.0,6.0,0.0,0.0,1.0,1.0,1.0,1.0,1.0,0.0,0.03399491310119629
4260.0,2.0,8.0,0.0,0.0,1.0,1.0,1.0,1.0,1.0,0.0,0.035516977310180664
4270.0,0.0,4.0,0.0,0.0,0.82,0.8,0.8,0.8,0.8,0.0,0.03295612335205078
4280.0,0.0,6.0,0.0,0.0,1.0,1.0,1.0,1.0,1.0,0.0,0.034859418869018555
4290.0,4.0,6.0,0.0,0.0,1.0,1.0,1.0,1.0,1.0,0.0,0.032367706298828125
4300.0,0.0,6.0,0.0,0.0,0.8142857142857143,0.9,0.8538461538461538,0.8538461538461538,0.9,0.0,0.03790736198425293
4310.0,0.0,7.0,0.0,0.0,0.9,0.9,0.9,0.9,0.9,0.0,0.036229610443115234
4320.0,0.0,4.0,0.0,0.0,1.0,0.9,0.9454545454545453,0.9454545454545453,0.9,0.0,0.03130841255187988
4330.0,4.0,6.0,0.0,0.0,1.0,1.0,1.0,1.0,1.0,0.0,0.02022719383239746
4340.0,3.0,7.0,0.0,0.0,1.0,1.0,1.0,1.0,1.0,0.0,0.00924539566040039
4350.0,0.0,4.0,0.0,0.0,1.0,1.0,1.0,1.0,1.0,0.39666318893432617,0.010580778121948242
4360.0,0.0,5.0,0.0,0.0,0.82,0.9,0.8555555555555555,0.8555555555555555,0.9,0.0,0.010609626770019531
4370.0,5.0,5.0,0.0,0.0,1.0,1.0,1.0,1.0,1.0,0.0,0.0323333740234375
4380.0,6.0,4.0,0.0,0.0,1.0,1.0,1.0,1.0,1.0,0.0,0.037290334701538086
4390.0,0.0,8.0,0.0,0.0,0.85,0.9,0.8666666666666666,0.8666666666666666,0.9,0.0,0.031777381896972656
4400.0,4.0,6.0,0.0,0.0,1.0,1.0,1.0,1.0,1.0,0.0,0.036020517349243164
4410.0,0.0,6.0,0.0,0.0,0.7333333333333333,0.8,0.75,0.75,0.8,0.0,0.0371553897857666
4420.0,2.0,8.0,0.0,0.0,1.0,1.0,1.0,1.0,1.0,0.0,0.03621363639831543
4430.0,4.0,6.0,0.0,0.0,1.0,1.0,1.0,1.0,1.0,0.0,0.03643012046813965
4440.0,0.0,7.0,0.0,0.0,1.0,0.9,0.9400000000000001,0.9400000000000001,0.9,0.0,0.0380551815032959
4450.0,0.0,5.0,0.0,0.0,1.0,1.0,1.0,1.0,1.0,0.0,0.034194231033325195
4460.0,0.0,5.0,0.0,0.0,0.82,0.9,0.8555555555555555,0.8555555555555555,0.9,0.0,0.010232686996459961
4470.0,0.0,4.0,0.0,0.0,1.0,1.0,1.0,1.0,1.0,0.0,0.011176109313964844
4480.0,2.0,8.0,0.0,0.0,1.0,1.0,1.0,1.0,1.0,0.0,0.009096622467041016
4490.0,0.0,6.0,0.0,0.0,0.825,0.9,0.8571428571428571,0.8571428571428571,0.9,0.0,0.03386259078979492
4500.0,0.0,5.0,0.0,0.0,0.82,0.9,0.8555555555555555,0.8555555555555555,0.9,0.0,0.03258013725280762
4510.0,0.0,5.0,0.0,0.0,0.82,0.9,0.8555555555555555,0.8555555555555555,0.9,0.0,0.03737211227416992
4520.0,0.0,7.0,0.0,0.0,0.8333333333333334,0.9,0.86,0.86,0.9,0.0,0.031433820724487305
4530.0,0.0,4.0,0.0,0.0,0.8166666666666668,0.9,0.8545454545454545,0.8545454545454545,0.9,0.0,0.035668134689331055
4540.0,5.0,5.0,0.0,0.0,1.0,1.0,1.0,1.0,1.0,0.0,0.0354917049407959
4550.0,3.0,7.0,0.0,0.0,1.0,1.0,1.0,1.0,1.0,0.0,0.03307199478149414
4560.0,5.0,5.0,0.0,0.0,1.0,1.0,1.0,1.0,1.0,0.0,0.03725862503051758
4570.0,0.0,7.0,0.0,0.0,0.8333333333333334,0.9,0.86,0.86,0.9,0.0,0.03964591026306152
4580.0,2.0,8.0,0.0,0.0,1.0,1.0,1.0,1.0,1.0,0.0,0.010701894760131836
4590.0,3.0,7.0,0.0,0.0,1.0,1.0,1.0,1.0,1.0,0.0,0.011865377426147461
4600.0,0.0,6.0,0.0,0.0,1.0,0.9,0.9333333333333333,0.9333333333333333,0.9,0.0,0.00966334342956543
4610.0,0.0,5.0,0.0,0.0,0.82,0.9,0.8555555555555555,0.8555555555555555,0.9,0.0,0.03694891929626465
4620.0,3.0,7.0,0.0,0.0,1.0,1.0,1.0,1.0,1.0,0.0,0.03674173355102539
4630.0,5.0,5.0,0.0,0.0,1.0,1.0,1.0,1.0,1.0,0.0,0.036635637283325195
4640.0,6.0,4.0,0.0,0.0,1.0,1.0,1.0,1.0,1.0,0.0,0.03373908996582031
4650.0,0.0,7.0,0.0,0.0,0.9,0.9,0.9,0.9,0.9,0.0,0.03529858589172363
4660.0,5.0,5.0,0.0,0.0,1.0,1.0,1.0,1.0,1.0,0.0,0.03627371788024902
4670.0,3.0,7.0,0.0,0.0,1.0,1.0,1.0,1.0,1.0,0.0,0.037606239318847656
4680.0,0.0,3.0,0.0,0.0,1.0,1.0,1.0,1.0,1.0,0.0,0.036360979080200195
4690.0,0.0,5.0,0.0,0.0,0.82,0.9,0.8555555555555555,0.8555555555555555,0.9,0.0,0.029703378677368164
4700.0,3.0,7.0,0.0,0.0,1.0,1.0,1.0,1.0,1.0,0.0,0.010201454162597656
4710.0,4.0,6.0,0.0,0.0,1.0,1.0,1.0,1.0,1.0,0.0,0.01161050796508789
4720.0,0.0,4.0,0.0,0.0,1.0,1.0,1.0,1.0,1.0,0.0,0.009681463241577148
4730.0,0.0,3.0,0.0,0.0,1.0,1.0,1.0,1.0,1.0,0.0,0.03457283973693848
4740.0,4.0,6.0,0.0,0.0,1.0,1.0,1.0,1.0,1.0,0.0,0.03687238693237305
4750.0,4.0,6.0,0.0,0.0,1.0,1.0,1.0,1.0,1.0,0.0,0.031174659729003906
4760.0,2.0,8.0,0.0,0.0,1.0,1.0,1.0,1.0,1.0,0.0,0.03573131561279297
4770.0,4.0,6.0,0.0,0.0,1.0,1.0,1.0,1.0,1.0,0.0,0.037828922271728516
4780.0,0.0,6.0,0.0,0.0,0.825,0.9,0.8571428571428571,0.8571428571428571,0.9,0.0,0.037123680114746094
4790.0,0.0,8.0,0.0,0.0,1.0,0.9,0.9333333333333333,0.9333333333333333,0.9,0.0,0.031070709228515625
4800.0,5.0,5.0,0.0,0.0,1.0,1.0,1.0,1.0,1.0,0.0,0.036191701889038086
4810.0,5.0,5.0,0.0,0.0,1.0,1.0,1.0,1.0,1.0,0.0,0.03501439094543457
4820.0,0.0,6.0,0.0,0.0,0.825,0.9,0.8571428571428571,0.8571428571428571,0.9,0.0,0.009706497192382812
4830.0,0.0,5.0,0.0,0.0,0.8166666666666668,0.9,0.8545454545454545,0.8545454545454545,0.9,0.0,0.010494709014892578
4840.0,4.0,6.0,0.0,0.0,1.0,1.0,1.0,1.0,1.0,0.0,0.009964942932128906
4850.0,0.0,6.0,0.0,0.0,0.825,0.9,0.8571428571428571,0.8571428571428571,0.9,0.0,0.039347171783447266
4860.0,0.0,8.0,0.0,0.0,1.0,1.0,1.0,1.0,1.0,0.0,0.03623342514038086
4870.0,3.0,7.0,0.0,0.0,1.0,1.0,1.0,1.0,1.0,0.0,0.03616523742675781
4880.0,0.0,4.0,0.0,0.0,1.0,1.0,1.0,1.0,1.0,0.0,0.03426098823547363
4890.0,0.0,7.0,0.0,0.0,0.85,0.9,0.8666666666666668,0.8666666666666668,0.9,0.0,0.040880441665649414
4900.0,0.0,4.0,0.0,0.0,0.6799999999999999,0.7,0.6694444444444445,0.6694444444444445,0.7,0.0,0.036084890365600586
4910.0,3.0,7.0,0.0,0.0,1.0,1.0,1.0,1.0,1.0,0.0,0.03236055374145508
4920.0,5.0,5.0,0.0,0.0,1.0,1.0,1.0,1.0,1.0,0.0,0.037325143814086914
4930.0,0.0,6.0,0.0,0.0,0.8,0.8,0.8,0.8,0.8,0.0,0.022063732147216797
4940.0,3.0,7.0,0.0,0.0,1.0,1.0,1.0,1.0,1.0,0.0,0.010639190673828125
4950.0,0.0,8.0,0.0,0.0,0.85,0.9,0.8666666666666666,0.8666666666666666,0.9,0.0,0.01078176498413086
4960.0,4.0,6.0,0.0,0.0,1.0,1.0,1.0,1.0,1.0,0.0,0.01161050796508789
4970.0,0.0,5.0,0.0,0.0,0.82,0.9,0.8555555555555555,0.8555555555555555,0.9,0.0,0.035800933837890625
4980.0,1.0,8.0,1.0,0.0,0.95,0.9,0.9137254901960784,0.9137254901960784,0.9,0.0,0.04059195518493652
4981.0,0.0,1.0,0.0,0.0,1.0,1.0,1.0,1.0,1.0,0.0,0.0009701251983642578
4990.0,6.0,3.0,0.0,0.0,1.0,1.0,1.0,1.0,1.0,0.0,0.029572486877441406
